 wavelength (Angstrom)      8125
        3969.82        3969.98        3970.14        3970.30        3970.46
        3970.61        3970.77        3970.93        3971.09        3971.25
        3971.41        3971.56        3971.72        3971.88        3972.04
        3972.20        3972.36        3972.52        3972.67        3972.83
        3972.99        3973.15        3973.31        3973.47        3973.63
        3973.78        3973.94        3974.10        3974.26        3974.42
        3974.58        3974.74        3974.89        3975.05        3975.21
        3975.37        3975.53        3975.69        3975.85        3976.00
        3976.16        3976.32        3976.48        3976.64        3976.80
        3976.96        3977.11        3977.27        3977.43        3977.59
        3977.75        3977.91        3978.07        3978.23        3978.38
        3978.54        3978.70        3978.86        3979.02        3979.18
        3979.34        3979.50        3979.65        3979.81        3979.97
        3980.13        3980.29        3980.45        3980.61        3980.77
        3980.92        3981.08        3981.24        3981.40        3981.56
        3981.72        3981.88        3982.04        3982.20        3982.35
        3982.51        3982.67        3982.83        3982.99        3983.15
        3983.31        3983.47        3983.63        3983.78        3983.94
        3984.10        3984.26        3984.42        3984.58        3984.74
        3984.90        3985.06        3985.22        3985.37        3985.53
        3985.69        3985.85        3986.01        3986.17        3986.33
        3986.49        3986.65        3986.81        3986.97        3987.12
        3987.28        3987.44        3987.60        3987.76        3987.92
        3988.08        3988.24        3988.40        3988.56        3988.72
        3988.87        3989.03        3989.19        3989.35        3989.51
        3989.67        3989.83        3989.99        3990.15        3990.31
        3990.47        3990.63        3990.78        3990.94        3991.10
        3991.26        3991.42        3991.58        3991.74        3991.90
        3992.06        3992.22        3992.38        3992.54        3992.70
        3992.86        3993.01        3993.17        3993.33        3993.49
        3993.65        3993.81        3993.97        3994.13        3994.29
        3994.45        3994.61        3994.77        3994.93        3995.09
        3995.25        3995.41        3995.56        3995.72        3995.88
        3996.04        3996.20        3996.36        3996.52        3996.68
        3996.84        3997.00        3997.16        3997.32        3997.48
        3997.64        3997.80        3997.96        3998.12        3998.28
        3998.44        3998.59        3998.75        3998.91        3999.07
        3999.23        3999.39        3999.55        3999.71        3999.87
        4000.03        4000.19        4000.35        4000.51        4000.67
        4000.83        4000.99        4001.15        4001.31        4001.47
        4001.63        4001.79        4001.95        4002.11        4002.27
        4002.43        4002.58        4002.74        4002.90        4003.06
        4003.22        4003.38        4003.54        4003.70        4003.86
        4004.02        4004.18        4004.34        4004.50        4004.66
        4004.82        4004.98        4005.14        4005.30        4005.46
        4005.62        4005.78        4005.94        4006.10        4006.26
        4006.42        4006.58        4006.74        4006.90        4007.06
        4007.22        4007.38        4007.54        4007.70        4007.86
        4008.02        4008.18        4008.34        4008.50        4008.66
        4008.82        4008.98        4009.14        4009.30        4009.46
        4009.62        4009.78        4009.94        4010.10        4010.26
        4010.42        4010.58        4010.74        4010.90        4011.06
        4011.22        4011.38        4011.54        4011.70        4011.86
        4012.02        4012.18        4012.34        4012.50        4012.66
        4012.82        4012.98        4013.14        4013.30        4013.46
        4013.62        4013.78        4013.94        4014.10        4014.26
        4014.42        4014.58        4014.74        4014.90        4015.06
        4015.22        4015.38        4015.54        4015.70        4015.86
        4016.02        4016.18        4016.34        4016.50        4016.66
        4016.82        4016.98        4017.14        4017.30        4017.46
        4017.62        4017.79        4017.95        4018.11        4018.27
        4018.43        4018.59        4018.75        4018.91        4019.07
        4019.23        4019.39        4019.55        4019.71        4019.87
        4020.03        4020.19        4020.35        4020.51        4020.67
        4020.83        4020.99        4021.15        4021.31        4021.47
        4021.63        4021.79        4021.96        4022.12        4022.28
        4022.44        4022.60        4022.76        4022.92        4023.08
        4023.24        4023.40        4023.56        4023.72        4023.88
        4024.04        4024.20        4024.36        4024.52        4024.68
        4024.84        4025.01        4025.17        4025.33        4025.49
        4025.65        4025.81        4025.97        4026.13        4026.29
        4026.45        4026.61        4026.77        4026.93        4027.09
        4027.25        4027.41        4027.58        4027.74        4027.90
        4028.06        4028.22        4028.38        4028.54        4028.70
        4028.86        4029.02        4029.18        4029.34        4029.50
        4029.67        4029.83        4029.99        4030.15        4030.31
        4030.47        4030.63        4030.79        4030.95        4031.11
        4031.27        4031.43        4031.59        4031.76        4031.92
        4032.08        4032.24        4032.40        4032.56        4032.72
        4032.88        4033.04        4033.20        4033.36        4033.53
        4033.69        4033.85        4034.01        4034.17        4034.33
        4034.49        4034.65        4034.81        4034.97        4035.14
        4035.30        4035.46        4035.62        4035.78        4035.94
        4036.10        4036.26        4036.42        4036.58        4036.75
        4036.91        4037.07        4037.23        4037.39        4037.55
        4037.71        4037.87        4038.03        4038.20        4038.36
        4038.52        4038.68        4038.84        4039.00        4039.16
        4039.32        4039.48        4039.65        4039.81        4039.97
        4040.13        4040.29        4040.45        4040.61        4040.77
        4040.94        4041.10        4041.26        4041.42        4041.58
        4041.74        4041.90        4042.06        4042.23        4042.39
        4042.55        4042.71        4042.87        4043.03        4043.19
        4043.35        4043.52        4043.68        4043.84        4044.00
        4044.16        4044.32        4044.48        4044.65        4044.81
        4044.97        4045.13        4045.29        4045.45        4045.61
        4045.78        4045.94        4046.10        4046.26        4046.42
        4046.58        4046.74        4046.91        4047.07        4047.23
        4047.39        4047.55        4047.71        4047.87        4048.04
        4048.20        4048.36        4048.52        4048.68        4048.84
        4049.00        4049.17        4049.33        4049.49        4049.65
        4049.81        4049.97        4050.14        4050.30        4050.46
        4050.62        4050.78        4050.94        4051.11        4051.27
        4051.43        4051.59        4051.75        4051.91        4052.08
        4052.24        4052.40        4052.56        4052.72        4052.88
        4053.05        4053.21        4053.37        4053.53        4053.69
        4053.85        4054.02        4054.18        4054.34        4054.50
        4054.66        4054.82        4054.99        4055.15        4055.31
        4055.47        4055.63        4055.80        4055.96        4056.12
        4056.28        4056.44        4056.60        4056.77        4056.93
        4057.09        4057.25        4057.41        4057.58        4057.74
        4057.90        4058.06        4058.22        4058.39        4058.55
        4058.71        4058.87        4059.03        4059.20        4059.36
        4059.52        4059.68        4059.84        4060.01        4060.17
        4060.33        4060.49        4060.65        4060.82        4060.98
        4061.14        4061.30        4061.46        4061.63        4061.79
        4061.95        4062.11        4062.27        4062.44        4062.60
        4062.76        4062.92        4063.08        4063.25        4063.41
        4063.57        4063.73        4063.89        4064.06        4064.22
        4064.38        4064.54        4064.71        4064.87        4065.03
        4065.19        4065.35        4065.52        4065.68        4065.84
        4066.00        4066.17        4066.33        4066.49        4066.65
        4066.81        4066.98        4067.14        4067.30        4067.46
        4067.63        4067.79        4067.95        4068.11        4068.27
        4068.44        4068.60        4068.76        4068.92        4069.09
        4069.25        4069.41        4069.57        4069.74        4069.90
        4070.06        4070.22        4070.39        4070.55        4070.71
        4070.87        4071.04        4071.20        4071.36        4071.52
        4071.69        4071.85        4072.01        4072.17        4072.33
        4072.50        4072.66        4072.82        4072.98        4073.15
        4073.31        4073.47        4073.63        4073.80        4073.96
        4074.12        4074.29        4074.45        4074.61        4074.77
        4074.94        4075.10        4075.26        4075.42        4075.59
        4075.75        4075.91        4076.07        4076.24        4076.40
        4076.56        4076.72        4076.89        4077.05        4077.21
        4077.37        4077.54        4077.70        4077.86        4078.03
        4078.19        4078.35        4078.51        4078.68        4078.84
        4079.00        4079.16        4079.33        4079.49        4079.65
        4079.82        4079.98        4080.14        4080.30        4080.47
        4080.63        4080.79        4080.96        4081.12        4081.28
        4081.44        4081.61        4081.77        4081.93        4082.10
        4082.26        4082.42        4082.58        4082.75        4082.91
        4083.07        4083.24        4083.40        4083.56        4083.72
        4083.89        4084.05        4084.21        4084.38        4084.54
        4084.70        4084.87        4085.03        4085.19        4085.35
        4085.52        4085.68        4085.84        4086.01        4086.17
        4086.33        4086.50        4086.66        4086.82        4086.98
        4087.15        4087.31        4087.47        4087.64        4087.80
        4087.96        4088.13        4088.29        4088.45        4088.62
        4088.78        4088.94        4089.10        4089.27        4089.43
        4089.59        4089.76        4089.92        4090.08        4090.25
        4090.41        4090.57        4090.74        4090.90        4091.06
        4091.23        4091.39        4091.55        4091.72        4091.88
        4092.04        4092.21        4092.37        4092.53        4092.70
        4092.86        4093.02        4093.19        4093.35        4093.51
        4093.68        4093.84        4094.00        4094.17        4094.33
        4094.49        4094.66        4094.82        4094.98        4095.15
        4095.31        4095.47        4095.64        4095.80        4095.96
        4096.13        4096.29        4096.45        4096.62        4096.78
        4096.94        4097.11        4097.27        4097.43        4097.60
        4097.76        4097.92        4098.09        4098.25        4098.41
        4098.58        4098.74        4098.91        4099.07        4099.23
        4099.40        4099.56        4099.72        4099.89        4100.05
        4100.21        4100.38        4100.54        4100.70        4100.87
        4101.03        4101.20        4101.36        4101.52        4101.69
        4101.85        4102.01        4102.18        4102.34        4102.51
        4102.67        4102.83        4103.00        4103.16        4103.32
        4103.49        4103.65        4103.81        4103.98        4104.14
        4104.31        4104.47        4104.63        4104.80        4104.96
        4105.12        4105.29        4105.45        4105.62        4105.78
        4105.94        4106.11        4106.27        4106.44        4106.60
        4106.76        4106.93        4107.09        4107.25        4107.42
        4107.58        4107.75        4107.91        4108.07        4108.24
        4108.40        4108.57        4108.73        4108.89        4109.06
        4109.22        4109.39        4109.55        4109.71        4109.88
        4110.04        4110.21        4110.37        4110.53        4110.70
        4110.86        4111.03        4111.19        4111.35        4111.52
        4111.68        4111.85        4112.01        4112.17        4112.34
        4112.50        4112.67        4112.83        4112.99        4113.16
        4113.32        4113.49        4113.65        4113.81        4113.98
        4114.14        4114.31        4114.47        4114.64        4114.80
        4114.96        4115.13        4115.29        4115.46        4115.62
        4115.78        4115.95        4116.11        4116.28        4116.44
        4116.61        4116.77        4116.93        4117.10        4117.26
        4117.43        4117.59        4117.76        4117.92        4118.08
        4118.25        4118.41        4118.58        4118.74        4118.91
        4119.07        4119.23        4119.40        4119.56        4119.73
        4119.89        4120.06        4120.22        4120.39        4120.55
        4120.71        4120.88        4121.04        4121.21        4121.37
        4121.54        4121.70        4121.87        4122.03        4122.19
        4122.36        4122.52        4122.69        4122.85        4123.02
        4123.18        4123.35        4123.51        4123.67        4123.84
        4124.00        4124.17        4124.33        4124.50        4124.66
        4124.83        4124.99        4125.16        4125.32        4125.48
        4125.65        4125.81        4125.98        4126.14        4126.31
        4126.47        4126.64        4126.80        4126.97        4127.13
        4127.30        4127.46        4127.63        4127.79        4127.95
        4128.12        4128.28        4128.45        4128.61        4128.78
        4128.94        4129.11        4129.27        4129.44        4129.60
        4129.77        4129.93        4130.10        4130.26        4130.43
        4130.59        4130.76        4130.92        4131.09        4131.25
        4131.41        4131.58        4131.74        4131.91        4132.07
        4132.24        4132.40        4132.57        4132.73        4132.90
        4133.06        4133.23        4133.39        4133.56        4133.72
        4133.89        4134.05        4134.22        4134.38        4134.55
        4134.71        4134.88        4135.04        4135.21        4135.37
        4135.54        4135.70        4135.87        4136.03        4136.20
        4136.36        4136.53        4136.69        4136.86        4137.02
        4137.19        4137.35        4137.52        4137.68        4137.85
        4138.01        4138.18        4138.34        4138.51        4138.67
        4138.84        4139.00        4139.17        4139.33        4139.50
        4139.66        4139.83        4140.00        4140.16        4140.33
        4140.49        4140.66        4140.82        4140.99        4141.15
        4141.32        4141.48        4141.65        4141.81        4141.98
        4142.14        4142.31        4142.47        4142.64        4142.80
        4142.97        4143.13        4143.30        4143.47        4143.63
        4143.80        4143.96        4144.13        4144.29        4144.46
        4144.62        4144.79        4144.95        4145.12        4145.28
        4145.45        4145.62        4145.78        4145.95        4146.11
        4146.28        4146.44        4146.61        4146.77        4146.94
        4147.10        4147.27        4147.44        4147.60        4147.77
        4147.93        4148.10        4148.26        4148.43        4148.59
        4148.76        4148.92        4149.09        4149.26        4149.42
        4149.59        4149.75        4149.92        4150.08        4150.25
        4150.41        4150.58        4150.75        4150.91        4151.08
        4151.24        4151.41        4151.57        4151.74        4151.91
        4152.07        4152.24        4152.40        4152.57        4152.73
        4152.90        4153.07        4153.23        4153.40        4153.56
        4153.73        4153.89        4154.06        4154.23        4154.39
        4154.56        4154.72        4154.89        4155.05        4155.22
        4155.39        4155.55        4155.72        4155.88        4156.05
        4156.21        4156.38        4156.55        4156.71        4156.88
        4157.04        4157.21        4157.38        4157.54        4157.71
        4157.87        4158.04        4158.21        4158.37        4158.54
        4158.70        4158.87        4159.03        4159.20        4159.37
        4159.53        4159.70        4159.86        4160.03        4160.20
        4160.36        4160.53        4160.69        4160.86        4161.03
        4161.19        4161.36        4161.52        4161.69        4161.86
        4162.02        4162.19        4162.35        4162.52        4162.69
        4162.85        4163.02        4163.19        4163.35        4163.52
        4163.68        4163.85        4164.02        4164.18        4164.35
        4164.51        4164.68        4164.85        4165.01        4165.18
        4165.35        4165.51        4165.68        4165.84        4166.01
        4166.18        4166.34        4166.51        4166.67        4166.84
        4167.01        4167.17        4167.34        4167.51        4167.67
        4167.84        4168.01        4168.17        4168.34        4168.50
        4168.67        4168.84        4169.00        4169.17        4169.34
        4169.50        4169.67        4169.83        4170.00        4170.17
        4170.33        4170.50        4170.67        4170.83        4171.00
        4171.17        4171.33        4171.50        4171.67        4171.83
        4172.00        4172.16        4172.33        4172.50        4172.66
        4172.83        4173.00        4173.16        4173.33        4173.50
        4173.66        4173.83        4174.00        4174.16        4174.33
        4174.50        4174.66        4174.83        4175.00        4175.16
        4175.33        4175.50        4175.66        4175.83        4176.00
        4176.16        4176.33        4176.49        4176.66        4176.83
        4176.99        4177.16        4177.33        4177.49        4177.66
        4177.83        4177.99        4178.16        4178.33        4178.50
        4178.66        4178.83        4179.00        4179.16        4179.33
        4179.50        4179.66        4179.83        4180.00        4180.16
        4180.33        4180.50        4180.66        4180.83        4181.00
        4181.16        4181.33        4181.50        4181.66        4181.83
        4182.00        4182.16        4182.33        4182.50        4182.67
