 wavelength (Angstrom)      8125
        3960.99        3961.15        3961.31        3961.47        3961.63
        3961.78        3961.94        3962.10        3962.26        3962.42
        3962.58        3962.73        3962.89        3963.05        3963.21
        3963.37        3963.52        3963.68        3963.84        3964.00
        3964.16        3964.31        3964.47        3964.63        3964.79
        3964.95        3965.11        3965.26        3965.42        3965.58
        3965.74        3965.90        3966.05        3966.21        3966.37
        3966.53        3966.69        3966.85        3967.00        3967.16
        3967.32        3967.48        3967.64        3967.80        3967.95
        3968.11        3968.27        3968.43        3968.59        3968.75
        3968.90        3969.06        3969.22        3969.38        3969.54
        3969.70        3969.85        3970.01        3970.17        3970.33
        3970.49        3970.65        3970.80        3970.96        3971.12
        3971.28        3971.44        3971.60        3971.76        3971.91
        3972.07        3972.23        3972.39        3972.55        3972.71
        3972.87        3973.02        3973.18        3973.34        3973.50
        3973.66        3973.82        3973.97        3974.13        3974.29
        3974.45        3974.61        3974.77        3974.93        3975.08
        3975.24        3975.40        3975.56        3975.72        3975.88
        3976.04        3976.20        3976.35        3976.51        3976.67
        3976.83        3976.99        3977.15        3977.31        3977.46
        3977.62        3977.78        3977.94        3978.10        3978.26
        3978.42        3978.58        3978.73        3978.89        3979.05
        3979.21        3979.37        3979.53        3979.69        3979.85
        3980.00        3980.16        3980.32        3980.48        3980.64
        3980.80        3980.96        3981.12        3981.28        3981.43
        3981.59        3981.75        3981.91        3982.07        3982.23
        3982.39        3982.55        3982.70        3982.86        3983.02
        3983.18        3983.34        3983.50        3983.66        3983.82
        3983.98        3984.14        3984.29        3984.45        3984.61
        3984.77        3984.93        3985.09        3985.25        3985.41
        3985.57        3985.73        3985.88        3986.04        3986.20
        3986.36        3986.52        3986.68        3986.84        3987.00
        3987.16        3987.32        3987.47        3987.63        3987.79
        3987.95        3988.11        3988.27        3988.43        3988.59
        3988.75        3988.91        3989.07        3989.23        3989.38
        3989.54        3989.70        3989.86        3990.02        3990.18
        3990.34        3990.50        3990.66        3990.82        3990.98
        3991.14        3991.30        3991.45        3991.61        3991.77
        3991.93        3992.09        3992.25        3992.41        3992.57
        3992.73        3992.89        3993.05        3993.21        3993.37
        3993.53        3993.68        3993.84        3994.00        3994.16
        3994.32        3994.48        3994.64        3994.80        3994.96
        3995.12        3995.28        3995.44        3995.60        3995.76
        3995.92        3996.08        3996.23        3996.39        3996.55
        3996.71        3996.87        3997.03        3997.19        3997.35
        3997.51        3997.67        3997.83        3997.99        3998.15
        3998.31        3998.47        3998.63        3998.79        3998.95
        3999.11        3999.27        3999.42        3999.58        3999.74
        3999.90        4000.06        4000.22        4000.38        4000.54
        4000.70        4000.86        4001.02        4001.18        4001.34
        4001.50        4001.66        4001.82        4001.98        4002.14
        4002.30        4002.46        4002.62        4002.78        4002.94
        4003.10        4003.26        4003.42        4003.58        4003.74
        4003.90        4004.06        4004.21        4004.37        4004.53
        4004.69        4004.85        4005.01        4005.17        4005.33
        4005.49        4005.65        4005.81        4005.97        4006.13
        4006.29        4006.45        4006.61        4006.77        4006.93
        4007.09        4007.25        4007.41        4007.57        4007.73
        4007.89        4008.05        4008.21        4008.37        4008.53
        4008.69        4008.85        4009.01        4009.17        4009.33
        4009.49        4009.65        4009.81        4009.97        4010.13
        4010.29        4010.45        4010.61        4010.77        4010.93
        4011.09        4011.25        4011.41        4011.57        4011.73
        4011.89        4012.05        4012.21        4012.37        4012.53
        4012.69        4012.85        4013.01        4013.17        4013.33
        4013.49        4013.65        4013.81        4013.97        4014.13
        4014.29        4014.45        4014.61        4014.77        4014.93
        4015.09        4015.25        4015.41        4015.57        4015.73
        4015.89        4016.05        4016.22        4016.38        4016.54
        4016.70        4016.86        4017.02        4017.18        4017.34
        4017.50        4017.66        4017.82        4017.98        4018.14
        4018.30        4018.46        4018.62        4018.78        4018.94
        4019.10        4019.26        4019.42        4019.58        4019.74
        4019.90        4020.06        4020.22        4020.38        4020.54
        4020.70        4020.86        4021.03        4021.19        4021.35
        4021.51        4021.67        4021.83        4021.99        4022.15
        4022.31        4022.47        4022.63        4022.79        4022.95
        4023.11        4023.27        4023.43        4023.59        4023.75
        4023.91        4024.07        4024.24        4024.40        4024.56
        4024.72        4024.88        4025.04        4025.20        4025.36
        4025.52        4025.68        4025.84        4026.00        4026.16
        4026.32        4026.48        4026.64        4026.80        4026.97
        4027.13        4027.29        4027.45        4027.61        4027.77
        4027.93        4028.09        4028.25        4028.41        4028.57
        4028.73        4028.89        4029.05        4029.22        4029.38
        4029.54        4029.70        4029.86        4030.02        4030.18
        4030.34        4030.50        4030.66        4030.82        4030.98
        4031.15        4031.31        4031.47        4031.63        4031.79
        4031.95        4032.11        4032.27        4032.43        4032.59
        4032.75        4032.91        4033.08        4033.24        4033.40
        4033.56        4033.72        4033.88        4034.04        4034.20
        4034.36        4034.52        4034.69        4034.85        4035.01
        4035.17        4035.33        4035.49        4035.65        4035.81
        4035.97        4036.13        4036.30        4036.46        4036.62
        4036.78        4036.94        4037.10        4037.26        4037.42
        4037.58        4037.74        4037.91        4038.07        4038.23
        4038.39        4038.55        4038.71        4038.87        4039.03
        4039.20        4039.36        4039.52        4039.68        4039.84
        4040.00        4040.16        4040.32        4040.48        4040.65
        4040.81        4040.97        4041.13        4041.29        4041.45
        4041.61        4041.77        4041.94        4042.10        4042.26
        4042.42        4042.58        4042.74        4042.90        4043.06
        4043.23        4043.39        4043.55        4043.71        4043.87
        4044.03        4044.19        4044.36        4044.52        4044.68
        4044.84        4045.00        4045.16        4045.32        4045.49
        4045.65        4045.81        4045.97        4046.13        4046.29
        4046.45        4046.62        4046.78        4046.94        4047.10
        4047.26        4047.42        4047.58        4047.75        4047.91
        4048.07        4048.23        4048.39        4048.55        4048.71
        4048.88        4049.04        4049.20        4049.36        4049.52
        4049.68        4049.85        4050.01        4050.17        4050.33
        4050.49        4050.65        4050.82        4050.98        4051.14
        4051.30        4051.46        4051.62        4051.79        4051.95
        4052.11        4052.27        4052.43        4052.59        4052.76
        4052.92        4053.08        4053.24        4053.40        4053.56
        4053.73        4053.89        4054.05        4054.21        4054.37
        4054.53        4054.70        4054.86        4055.02        4055.18
        4055.34        4055.50        4055.67        4055.83        4055.99
        4056.15        4056.31        4056.48        4056.64        4056.80
        4056.96        4057.12        4057.29        4057.45        4057.61
        4057.77        4057.93        4058.09        4058.26        4058.42
        4058.58        4058.74        4058.90        4059.07        4059.23
        4059.39        4059.55        4059.71        4059.88        4060.04
        4060.20        4060.36        4060.52        4060.69        4060.85
        4061.01        4061.17        4061.33        4061.50        4061.66
        4061.82        4061.98        4062.14        4062.31        4062.47
        4062.63        4062.79        4062.96        4063.12        4063.28
        4063.44        4063.60        4063.77        4063.93        4064.09
        4064.25        4064.41        4064.58        4064.74        4064.90
        4065.06        4065.23        4065.39        4065.55        4065.71
        4065.87        4066.04        4066.20        4066.36        4066.52
        4066.69        4066.85        4067.01        4067.17        4067.33
        4067.50        4067.66        4067.82        4067.98        4068.15
        4068.31        4068.47        4068.63        4068.80        4068.96
        4069.12        4069.28        4069.44        4069.61        4069.77
        4069.93        4070.09        4070.26        4070.42        4070.58
        4070.74        4070.91        4071.07        4071.23        4071.39
        4071.56        4071.72        4071.88        4072.04        4072.21
        4072.37        4072.53        4072.69        4072.86        4073.02
        4073.18        4073.34        4073.51        4073.67        4073.83
        4073.99        4074.16        4074.32        4074.48        4074.64
        4074.81        4074.97        4075.13        4075.29        4075.46
        4075.62        4075.78        4075.94        4076.11        4076.27
        4076.43        4076.59        4076.76        4076.92        4077.08
        4077.25        4077.41        4077.57        4077.73        4077.90
        4078.06        4078.22        4078.38        4078.55        4078.71
        4078.87        4079.04        4079.20        4079.36        4079.52
        4079.69        4079.85        4080.01        4080.17        4080.34
        4080.50        4080.66        4080.83        4080.99        4081.15
        4081.31        4081.48        4081.64        4081.80        4081.97
        4082.13        4082.29        4082.45        4082.62        4082.78
        4082.94        4083.11        4083.27        4083.43        4083.59
        4083.76        4083.92        4084.08        4084.25        4084.41
        4084.57        4084.74        4084.90        4085.06        4085.22
        4085.39        4085.55        4085.71        4085.88        4086.04
        4086.20        4086.37        4086.53        4086.69        4086.85
        4087.02        4087.18        4087.34        4087.51        4087.67
        4087.83        4088.00        4088.16        4088.32        4088.49
        4088.65        4088.81        4088.98        4089.14        4089.30
        4089.46        4089.63        4089.79        4089.95        4090.12
        4090.28        4090.44        4090.61        4090.77        4090.93
        4091.10        4091.26        4091.42        4091.59        4091.75
        4091.91        4092.08        4092.24        4092.40        4092.57
        4092.73        4092.89        4093.06        4093.22        4093.38
        4093.55        4093.71        4093.87        4094.04        4094.20
        4094.36        4094.53        4094.69        4094.85        4095.02
        4095.18        4095.34        4095.51        4095.67        4095.83
        4096.00        4096.16        4096.32        4096.49        4096.65
        4096.81        4096.98        4097.14        4097.30        4097.47
        4097.63        4097.79        4097.96        4098.12        4098.28
        4098.45        4098.61        4098.78        4098.94        4099.10
        4099.27        4099.43        4099.59        4099.76        4099.92
        4100.08        4100.25        4100.41        4100.57        4100.74
        4100.90        4101.07        4101.23        4101.39        4101.56
        4101.72        4101.88        4102.05        4102.21        4102.37
        4102.54        4102.70        4102.87        4103.03        4103.19
        4103.36        4103.52        4103.68        4103.85        4104.01
        4104.18        4104.34        4104.50        4104.67        4104.83
        4104.99        4105.16        4105.32        4105.49        4105.65
        4105.81        4105.98        4106.14        4106.30        4106.47
        4106.63        4106.80        4106.96        4107.12        4107.29
        4107.45        4107.62        4107.78        4107.94        4108.11
        4108.27        4108.44        4108.60        4108.76        4108.93
        4109.09        4109.26        4109.42        4109.58        4109.75
        4109.91        4110.07        4110.24        4110.40        4110.57
        4110.73        4110.89        4111.06        4111.22        4111.39
        4111.55        4111.72        4111.88        4112.04        4112.21
        4112.37        4112.54        4112.70        4112.86        4113.03
        4113.19        4113.36        4113.52        4113.68        4113.85
        4114.01        4114.18        4114.34        4114.50        4114.67
        4114.83        4115.00        4115.16        4115.33        4115.49
        4115.65        4115.82        4115.98        4116.15        4116.31
        4116.48        4116.64        4116.80        4116.97        4117.13
        4117.30        4117.46        4117.63        4117.79        4117.95
        4118.12        4118.28        4118.45        4118.61        4118.78
        4118.94        4119.10        4119.27        4119.43        4119.60
        4119.76        4119.93        4120.09        4120.25        4120.42
        4120.58        4120.75        4120.91        4121.08        4121.24
        4121.41        4121.57        4121.73        4121.90        4122.06
        4122.23        4122.39        4122.56        4122.72        4122.89
        4123.05        4123.21        4123.38        4123.54        4123.71
        4123.87        4124.04        4124.20        4124.37        4124.53
        4124.70        4124.86        4125.02        4125.19        4125.35
        4125.52        4125.68        4125.85        4126.01        4126.18
        4126.34        4126.51        4126.67        4126.84        4127.00
        4127.16        4127.33        4127.49        4127.66        4127.82
        4127.99        4128.15        4128.32        4128.48        4128.65
        4128.81        4128.98        4129.14        4129.31        4129.47
        4129.64        4129.80        4129.97        4130.13        4130.29
        4130.46        4130.62        4130.79        4130.95        4131.12
        4131.28        4131.45        4131.61        4131.78        4131.94
        4132.11        4132.27        4132.44        4132.60        4132.77
        4132.93        4133.10        4133.26        4133.43        4133.59
        4133.76        4133.92        4134.09        4134.25        4134.42
        4134.58        4134.75        4134.91        4135.08        4135.24
        4135.41        4135.57        4135.74        4135.90        4136.07
        4136.23        4136.40        4136.56        4136.73        4136.89
        4137.06        4137.22        4137.39        4137.55        4137.72
        4137.88        4138.05        4138.21        4138.38        4138.54
        4138.71        4138.87        4139.04        4139.20        4139.37
        4139.53        4139.70        4139.86        4140.03        4140.19
        4140.36        4140.52        4140.69        4140.86        4141.02
        4141.19        4141.35        4141.52        4141.68        4141.85
        4142.01        4142.18        4142.34        4142.51        4142.67
        4142.84        4143.00        4143.17        4143.33        4143.50
        4143.66        4143.83        4144.00        4144.16        4144.33
        4144.49        4144.66        4144.82        4144.99        4145.15
        4145.32        4145.48        4145.65        4145.81        4145.98
        4146.15        4146.31        4146.48        4146.64        4146.81
        4146.97        4147.14        4147.30        4147.47        4147.63
        4147.80        4147.97        4148.13        4148.30        4148.46
        4148.63        4148.79        4148.96        4149.12        4149.29
        4149.46        4149.62        4149.79        4149.95        4150.12
        4150.28        4150.45        4150.61        4150.78        4150.95
        4151.11        4151.28        4151.44        4151.61        4151.77
        4151.94        4152.10        4152.27        4152.44        4152.60
        4152.77        4152.93        4153.10        4153.26        4153.43
        4153.60        4153.76        4153.93        4154.09        4154.26
        4154.42        4154.59        4154.76        4154.92        4155.09
        4155.25        4155.42        4155.59        4155.75        4155.92
        4156.08        4156.25        4156.41        4156.58        4156.75
        4156.91        4157.08        4157.24        4157.41        4157.58
        4157.74        4157.91        4158.07        4158.24        4158.40
        4158.57        4158.74        4158.90        4159.07        4159.23
        4159.40        4159.57        4159.73        4159.90        4160.06
        4160.23        4160.40        4160.56        4160.73        4160.89
        4161.06        4161.23        4161.39        4161.56        4161.72
        4161.89        4162.06        4162.22        4162.39        4162.55
        4162.72        4162.89        4163.05        4163.22        4163.39
        4163.55        4163.72        4163.88        4164.05        4164.22
        4164.38        4164.55        4164.71        4164.88        4165.05
        4165.21        4165.38        4165.55        4165.71        4165.88
        4166.04        4166.21        4166.38        4166.54        4166.71
        4166.88        4167.04        4167.21        4167.37        4167.54
        4167.71        4167.87        4168.04        4168.21        4168.37
        4168.54        4168.70        4168.87        4169.04        4169.20
        4169.37        4169.54        4169.70        4169.87        4170.04
        4170.20        4170.37        4170.53        4170.70        4170.87
        4171.03        4171.20        4171.37        4171.53        4171.70
        4171.87        4172.03        4172.20        4172.37        4172.53
        4172.70        4172.86        4173.03        4173.20        4173.36
